This fits B3 to B12 into the virial expansion since maxPower is set to 10.
===== Virial Coefficients for Hertzian Microgels =====
x-link fraction: 3.0E-5
Young's calibration: 1.0
chi: 0.0
Dry radius [nm]: 50.0
Number of density points: 30
Dry volume fraction range: phi0_min = 1.0E-4, phi0_max = 0.0029999999999999988

===== B2 at Each Density Point =====
phi0, B2_rho, B2_phi0, B2_HS, B2*
1.0E-4, 4066.241898460482, 970.7437469210377, 5759.577539434976, 0.7059965545423297
2.0E-4, 4066.0633530391856, 970.701122341489, 5759.3246410034635, 0.7059965545423298
3.0E-4, 4065.9525664952607, 970.6746740023485, 5759.167718787325, 0.7059965545423298
4.0E-4, 4065.890276820681, 970.6598034379291, 5759.07948935592, 0.70599655454233
5.0E-4, 4065.658984720644, 970.6045865164007, 5758.751878550249, 0.7059965545423297
6.0E-4, 4065.5889951060485, 970.5878777267086, 5758.652742634999, 0.70599655454233
7.0E-4, 4065.5099420231404, 970.5690051933415, 5758.540768883289, 0.7059965545423297
8.0E-4, 4065.5441928591604, 970.5771819781279, 5758.589283052089, 0.7059965545423299
9.0E-4, 4065.17280010127, 970.4885184882576, 5758.063228419809, 0.7059965545423299
0.001, 4064.860466504384, 970.4139543345005, 5757.620827398336, 0.7059965545423299
0.0011, 4064.724393149556, 970.3814692139346, 5757.428087994791, 0.7059965545423298
0.0012, 4064.5731523523555, 970.3453631332271, 5757.213864856975, 0.7059965545423299
0.0013, 4064.4727451506074, 970.3213926795067, 5757.071644330399, 0.7059965545423299
0.0014, 4064.096582104749, 970.2315903672715, 5756.53883288332, 0.7059965545423299
0.0015, 4063.6368110353897, 970.1218281097027, 5755.88759589583, 0.7059965545423298
0.0016, 4063.4279170468158, 970.0719583434071, 5755.591710615328, 0.7059965545423298
0.0017, 4062.9050419239697, 969.9471311027761, 5754.851090679604, 0.7059965545423299
0.0018, 4062.3108094169966, 969.80526854153, 5754.009397468567, 0.70599655454233
0.0019, 4061.8044468680573, 969.6843833875396, 5753.2921665618705, 0.7059965545423299
0.002, 4061.4893320376177, 969.6091552631806, 5752.845826096875, 0.70599655454233
0.0021, 4060.739527396229, 969.4301525906351, 5751.783774679535, 0.70599655454233
0.0022, 4060.002056841351, 969.2540944643449, 5750.73919372495, 0.7059965545423299
0.0023, 4060.138472228968, 969.2866612392245, 5750.932417596567, 0.70599655454233
0.0024, 4059.0608166831453, 969.0293899286223, 5749.405985861329, 0.7059965545423298
0.0025, 4057.7901809153873, 968.7260479836602, 5747.60620970154, 0.7059965545423299
0.0026, 4056.8502307281115, 968.5016514058126, 5746.274829001128, 0.7059965545423298
0.0027, 4055.6992927266997, 968.2268851976371, 5744.644597247151, 0.70599655454233
0.0028, 4054.029713446926, 967.8283025047474, 5742.279742533582, 0.7059965545423299
0.0029, 4052.3263620568014, 967.4216573144063, 5739.867051736204, 0.7059965545423299
0.003, 4050.9703329247814, 967.0979292053999, 5737.946321212385, 0.70599655454233

===== Virial Coefficients in RHO-SPACE (from OLS fit) =====
Coefficient, Value
B3, -2.5601693092746887E8
B4, 9.38705893638256E12
B5, -1.3459478609452248E17
B6, 1.0458602604133496E21
B7, -4.878857637183248E24
B8, 1.4268331385032135E28
B9, -2.6314631205589528E31
B10, 2.9672792481163147E34
B11, -1.865796417027976E37
B12, 5.007944279858785E39

===== Virial Coefficients in PHI0-SPACE =====
Conversion: rho = (0.75/pi) * phi0
B_n_tilde = B_n * (0.75/pi)^(n-1)

Coefficient, Value
B3_tilde, -1.4591215391653001E7
B4_tilde, 1.2772141362276263E11
B5_tilde, -4.371936036530139E14
B6_tilde, 8.110182272758016E17
B7_tilde, -9.032053262241647E20
B8_tilde, 6.305984838654777E23
B9_tilde, -2.7764407722412962E26
B10_tilde, 7.474134959787259E28
B11_tilde, -1.121962035588839E31
B12_tilde, 7.189269859659298E32
