This fits B3 to B4 into the virial expansion since maxPower is set to 2.
===== Virial Coefficients for Hertzian Microgels =====
x-link fraction: 3.0E-5
Young's calibration: 1.0
chi: 0.0
Dry radius [nm]: 50.0
Number of density points: 30
Dry volume fraction range: phi0_min = 1.0E-4, phi0_max = 0.0029999999999999988

===== B2 at Each Density Point =====
phi0, B2_rho, B2_phi0, B2_HS, B2*
1.0E-4, 4066.82454540078, 970.8828436319765, 5760.402822414825, 0.7059965545423301
2.0E-4, 4068.7182276483795, 971.3349269675026, 5763.085104977562, 0.7059965545423298
3.0E-4, 4070.042539721541, 971.6510831864625, 5764.960910269585, 0.7059965545423299
4.0E-4, 4072.1357181393587, 972.150792724416, 5767.925766690413, 0.70599655454233
5.0E-4, 4075.2134595148295, 972.885549354613, 5772.28519501293, 0.7059965545423299
6.0E-4, 4077.6834675565874, 973.4752203385966, 5775.783807047033, 0.70599655454233
7.0E-4, 4080.214107476753, 974.0793661173167, 5779.368300347864, 0.7059965545423299
8.0E-4, 4083.8934703073896, 974.9577492902033, 5784.579887864777, 0.7059965545423299
9.0E-4, 4087.6427511446914, 975.8528241576478, 5789.89050986878, 0.7059965545423297
0.001, 4091.212760449421, 976.7051010992454, 5794.947204950024, 0.7059965545423298
0.0011, 4098.565969301425, 978.4605504038207, 5805.362565768278, 0.70599655454233
0.0012, 4102.074630258233, 979.298181506185, 5810.332364748507, 0.7059965545423298
0.0013, 4109.366004936711, 981.0388689892072, 5820.660141324136, 0.7059965545423299
0.0014, 4117.306327560994, 982.9344813823059, 5831.907112110602, 0.7059965545423299
0.0015, 4125.678243316975, 984.9331290458757, 5843.765407596772, 0.7059965545423298
0.0016, 4135.508228389924, 987.2798651181948, 5857.68896715199, 0.7059965545423298
0.0017, 4147.764685563752, 990.2058787342082, 5875.049472801728, 0.7059965545423299
0.0018, 4161.479633462456, 993.480081362698, 5894.475839418482, 0.7059965545423299
0.0019, 4174.794919503592, 996.6588717508919, 5913.3361099898675, 0.7059965545423301
0.002, 4192.431552149339, 1000.8693076484917, 5938.317297974817, 0.7059965545423299
0.0021, 4184.859062421245, 999.0615088908835, 5927.591339498994, 0.70599655454233
0.0022, 4196.781343585152, 1001.9077438611345, 5944.478505714184, 0.7059965545423299
0.0023, 4220.118101726486, 1007.4789844820344, 5977.533565248382, 0.7059965545423298
0.0024, 4250.580563065285, 1014.7513614332578, 6020.681738058582, 0.7059965545423299
0.0025, 4297.892436153034, 1026.0462391365354, 6087.696049648841, 0.7059965545423299
0.0026, 4373.762638890002, 1044.1589158349943, 6195.161450505013, 0.7059965545423299
0.0027, 4488.800996712834, 1071.6223007740111, 6358.106095323295, 0.70599655454233
0.0028, 4655.312492380492, 1111.3739921997098, 6593.959223212285, 0.70599655454233
0.0029, 4831.306725921768, 1153.3895205353551, 6843.244056698997, 0.7059965545423298
0.003, 4948.547139761342, 1181.3786076244166, 7009.307776252949, 0.7059965545423298

===== Virial Coefficients in RHO-SPACE (from OLS fit) =====
Coefficient, Value
B3, -3.2717348073640935E7
B4, 1.3745245032212546E11

===== Virial Coefficients in PHI0-SPACE =====
Conversion: rho = (0.75/pi) * phi0
B_n_tilde = B_n * (0.75/pi)^(n-1)

Coefficient, Value
B3_tilde, -1864665.2432585582
B4_tilde, 1.870193995801174E9
