This fits B3 to B12 into the virial expansion since maxPower is set to 10.
===== Virial Coefficients for Hertzian Microgels =====
x-link fraction: 3.0E-5
Young's calibration: 1.0
chi: 0.0
Dry radius [nm]: 50.0
Number of density points: 30
Dry volume fraction range: phi0_min = 1.0E-4, phi0_max = 0.0029999999999999988

===== B2 at Each Density Point =====
phi0, B2_rho, B2_phi0, B2_HS, B2*
1.0E-4, 4066.9180571756556, 970.9051679237895, 5760.53527600015, 0.70599655454233
2.0E-4, 4068.2577137980697, 971.224987384044, 5762.432815887272, 0.7059965545423298
3.0E-4, 4070.2649087760688, 971.7041698877907, 5765.27588213892, 0.7059965545423299
4.0E-4, 4071.9434432748967, 972.1048904817488, 5767.6534213606465, 0.7059965545423298
5.0E-4, 4074.8617335004346, 972.8015809539055, 5771.786997093788, 0.7059965545423298
6.0E-4, 4077.0313141988795, 973.3195301927968, 5774.860072570553, 0.7059965545423299
7.0E-4, 4079.864571671667, 973.9959205905661, 5778.873204723333, 0.7059965545423301
8.0E-4, 4084.277340593644, 975.0493915705486, 5785.123616136232, 0.7059965545423299
9.0E-4, 4087.765995157204, 975.8822464983446, 5790.065077310674, 0.7059965545423298
0.001, 4091.7804112657695, 976.8406177493034, 5795.751246857446, 0.7059965545423299
0.0011, 4097.147100836601, 978.1218205091598, 5803.352827256532, 0.7059965545423299
0.0012, 4103.183496827705, 979.5629038998263, 5811.903004948289, 0.7059965545423298
0.0013, 4109.597959347127, 981.0942440256918, 5820.988690251072, 0.70599655454233
0.0014, 4117.825964426627, 983.0585355459733, 5832.643145257351, 0.7059965545423298
0.0015, 4126.0372473440475, 985.0188349441236, 5844.27391436605, 0.70599655454233
0.0016, 4136.951832740843, 987.6245002706715, 5859.7337425005835, 0.7059965545423298
0.0017, 4146.270577862914, 989.8491867950581, 5872.933162614059, 0.7059965545423298
0.0018, 4160.061851976888, 993.1416109652195, 5892.467640544924, 0.7059965545423298
0.0019, 4178.416635991996, 997.5234928733024, 5918.466045065477, 0.7059965545423298
0.002, 4192.155645341314, 1000.8034397499969, 5937.926493223364, 0.7059965545423299
0.0021, 4187.381377301988, 999.6636672128404, 5931.1640409017355, 0.70599655454233
0.0022, 4195.914979267265, 1001.7009146155692, 5943.251354799194, 0.7059965545423299
0.0023, 4220.468091208776, 1007.5625383162393, 5978.029303478316, 0.70599655454233
0.0024, 4251.4033505484085, 1014.9477874758377, 6021.847165110356, 0.7059965545423299
0.0025, 4297.020854471093, 1025.8381643370515, 6086.461508663714, 0.7059965545423299
0.0026, 4373.397680158898, 1044.0717883558748, 6194.6445092696, 0.7059965545423296
0.0027, 4488.7775930057405, 1071.6167135505054, 6358.072945434755, 0.70599655454233
0.0028, 4655.133818765747, 1111.3313370162298, 6593.706143202766, 0.7059965545423298
0.0029, 4831.135313837507, 1153.3485989145815, 6843.001262193617, 0.7059965545423298
0.003, 4948.116010708969, 1181.2756831447232, 7008.697108892604, 0.7059965545423301

===== Virial Coefficients in RHO-SPACE (from OLS fit) =====
Coefficient, Value
B3, -1.8532695247575912E8
B4, 6.550873944666191E12
B5, -9.3591917882267344E16
B6, 7.39112720876344E20
B7, -3.5255205676249933E24
B8, 1.0535228073684687E28
B9, -1.9750638285137257E31
B10, 2.2448025485726267E34
B11, -1.407167841778741E37
B12, 3.717140515220873E39

===== Virial Coefficients in PHI0-SPACE =====
Conversion: rho = (0.75/pi) * phi0
B_n_tilde = B_n * (0.75/pi)^(n-1)

Coefficient, Value
B3_tilde, -1.0562369729440046E7
B4_tilde, 8.913195137557309E10
B5_tilde, -3.0400722820726425E14
B6_tilde, 5.7314912071065402E17
B7_tilde, -6.526669132797519E20
B8_tilde, 4.656114769952562E23
B9_tilde, -2.0838778618716535E26
B10_tilde, 5.654323642359301E28
B11_tilde, -8.461742566169569E30
B12_tilde, 5.336226758287616E32
