This fits B3 to B7 into the virial expansion since maxPower is set to 5.
===== Virial Coefficients for Hertzian Microgels =====
x-link fraction: 3.0E-5
Young's calibration: 1.0
chi: 0.0
Dry radius [nm]: 50.0
Number of density points: 30
Dry volume fraction range: phi0_min = 1.0E-4, phi0_max = 0.0029999999999999988

===== B2 at Each Density Point =====
phi0, B2_rho, B2_phi0, B2_HS, B2*
1.0E-4, 4066.9131118916484, 970.9039873241974, 5760.528271314394, 0.7059965545423303
2.0E-4, 4067.9501683272906, 971.151566311194, 5761.997196947208, 0.7059965545423297
3.0E-4, 4070.115090231212, 971.6684033448195, 5765.0636735326725, 0.7059965545423296
4.0E-4, 4072.678252094667, 972.2803131655897, 5768.694232133789, 0.70599655454233
5.0E-4, 4074.7018272177434, 972.7634061409228, 5771.560499837304, 0.7059965545423298
6.0E-4, 4077.4438669292667, 973.4180199022877, 5775.444427731683, 0.7059965545423299
7.0E-4, 4080.0579397524207, 974.0420838193984, 5779.147098525663, 0.7059965545423299
8.0E-4, 4083.434399212407, 974.8481541392076, 5783.929642347246, 0.70599655454233
9.0E-4, 4088.458706753574, 976.0476192103936, 5791.046259997632, 0.70599655454233
0.001, 4091.5171956642944, 976.777779653193, 5795.378418406966, 0.7059965545423297
0.0011, 4097.179350348565, 978.1295195130218, 5803.3985066748755, 0.70599655454233
0.0012, 4103.406134070269, 979.6160546263319, 5812.218356689217, 0.7059965545423298
0.0013, 4109.76188074454, 981.1333773767069, 5821.2208746666465, 0.7059965545423298
0.0014, 4118.167384387171, 983.1400435575596, 5833.126745295264, 0.7059965545423299
0.0015, 4127.135536391732, 985.2810321404476, 5845.8295721672375, 0.7059965545423299
0.0016, 4136.3359775070885, 987.4774756636499, 5858.861422048321, 0.7059965545423296
0.0017, 4147.312312978646, 990.0978827346499, 5874.408715304832, 0.7059965545423299
0.0018, 4161.364027449948, 993.4524824601851, 5894.3120907262755, 0.7059965545423299
0.0019, 4177.482518084991, 997.3004886498067, 5917.142925425593, 0.7059965545423299
0.002, 4172.045888362342, 996.0025889086268, 5909.4422791721945, 0.7059965545423299
0.0021, 4183.943321648717, 998.8428918850756, 5926.294249921665, 0.7059965545423299
0.0022, 4197.728181415185, 1002.1337847425685, 5945.819642330139, 0.7059965545423297
0.0023, 4220.211781749989, 1007.5013489402487, 5977.666257147371, 0.70599655454233
0.0024, 4251.604500728621, 1014.9958085440646, 6022.1320817702435, 0.70599655454233
0.0025, 4298.697463835232, 1026.2384253389569, 6088.836321052459, 0.7059965545423299
0.0026, 4373.615750198236, 1044.1238487429262, 6194.953391852573, 0.7059965545423298
0.0027, 4489.278905571876, 1071.736393109907, 6358.783023356398, 0.7059965545423298
0.0028, 4655.8117557512605, 1111.4931825497538, 6594.66639857675, 0.7059965545423299
0.0029, 4830.715814486392, 1153.248450821551, 6842.407067578338, 0.7059965545423298
0.003, 4946.349933659168, 1180.8540633061878, 7006.195571118184, 0.7059965545423297

===== Virial Coefficients in RHO-SPACE (from OLS fit) =====
Coefficient, Value
B3, -3.581983228673672E7
B4, 4.7618970426028656E11
B5, -1.3572137577963482E15
B6, 1.29616620508414208E18
B7, -3.2099795653068288E18

===== Virial Coefficients in PHI0-SPACE =====
Conversion: rho = (0.75/pi) * phi0
B_n_tilde = B_n * (0.75/pi)^(n-1)

Coefficient, Value
B3_tilde, -2041485.6404037324
B4_tilde, 6.479092396554911E9
B5_tilde, -4.408530158677388E12
B6_tilde, 1.0051193813279399E15
B7_tilde, -5.942519450372232E14
