This fits B3 to B8 into the virial expansion since maxPower is set to 6.
===== Virial Coefficients for Hertzian Microgels =====
x-link fraction: 3.0E-5
Young's calibration: 1.0
chi: 0.0
Dry radius [nm]: 50.0
Number of density points: 30
Dry volume fraction range: phi0_min = 1.0E-4, phi0_max = 0.0029999999999999988

===== B2 at Each Density Point =====
phi0, B2_rho, B2_phi0, B2_HS, B2*
1.0E-4, 4067.132231238337, 970.9562982149263, 5760.838640175661, 0.7059965545423299
2.0E-4, 4068.5981447973704, 971.3062592985247, 5762.915015123388, 0.7059965545423298
3.0E-4, 4070.835443275312, 971.8403749664293, 5766.084008602956, 0.7059965545423298
4.0E-4, 4072.6378634696243, 972.2706710916094, 5768.637024170404, 0.7059965545423299
5.0E-4, 4075.022917812999, 972.8400608740457, 5772.01530459972, 0.7059965545423298
6.0E-4, 4076.452986750317, 973.1814646845502, 5774.040907880809, 0.7059965545423298
7.0E-4, 4079.5784361889177, 973.9276107758559, 5778.467911693351, 0.7059965545423298
8.0E-4, 4084.228430114077, 975.0377150536605, 5785.054337498465, 0.7059965545423298
9.0E-4, 4086.5822898024135, 975.5996576607757, 5788.388432648351, 0.7059965545423299
0.001, 4092.539717762107, 977.0218888226243, 5796.826757058526, 0.7059965545423299
0.0011, 4097.852037037205, 978.2901116304956, 5804.351325331441, 0.7059965545423301
0.0012, 4102.476002934459, 979.39400217435, 5810.900884061588, 0.7059965545423297
0.0013, 4108.34663486398, 980.7955123103347, 5819.216267319125, 0.7059965545423299
0.0014, 4117.923634950535, 983.0818526659849, 5832.781489450787, 0.70599655454233
0.0015, 4125.771569697499, 984.9554090780478, 5843.897598582583, 0.7059965545423299
0.0016, 4134.5929442379465, 987.0613571225135, 5856.392524349134, 0.7059965545423299
0.0017, 4147.394692116979, 990.1175493052599, 5874.5254002062, 0.7059965545423299
0.0018, 4161.307990052546, 993.4391045169936, 5894.232717254777, 0.7059965545423298
0.0019, 4176.001670390041, 996.9469623038802, 5915.045397207611, 0.70599655454233
0.002, 4190.265360284109, 1000.3521674339365, 5935.249022568524, 0.7059965545423299
0.0021, 4184.70938508459, 999.0257760588875, 5927.379330905341, 0.7059965545423298
0.0022, 4199.082060620008, 1002.456999594264, 5947.737327616434, 0.7059965545423299
0.0023, 4218.283402437992, 1007.0409822907578, 5974.9348283612235, 0.70599655454233
0.0024, 4249.055923391488, 1014.3873805224797, 6018.522181239235, 0.70599655454233
0.0025, 4297.833748282661, 1026.0322284395313, 6087.612921948012, 0.7059965545423298
0.0026, 4373.799653102158, 1044.1677523272383, 6195.213878823423, 0.7059965545423296
0.0027, 4488.909003100284, 1071.6480853996836, 6358.259079621527, 0.70599655454233
0.0028, 4654.465102807423, 1111.1716928407923, 6592.7589488375515, 0.7059965545423298
0.0029, 4830.260771366333, 1153.1398172787347, 6841.762527435565, 0.70599655454233
0.003, 4948.1709215010105, 1181.288792130697, 7008.774886598018, 0.70599655454233

===== Virial Coefficients in RHO-SPACE (from OLS fit) =====
Coefficient, Value
B3, 4.308573722889297E7
B4, -9.349603374557668E11
B5, 7.138610491223359E15
B6, -2.1505278812306244E19
B7, 2.816475205369014E22
B8, -1.3067509780129747E25

===== Virial Coefficients in PHI0-SPACE =====
Conversion: rho = (0.75/pi) * phi0
B_n_tilde = B_n * (0.75/pi)^(n-1)

Coefficient, Value
B3_tilde, 2455592.5654504728
B4_tilde, -1.2721178890039421E10
B5_tilde, 2.3187784135571082E13
B6_tilde, -1.6676389532704194E16
B7_tilde, 5.2140390145432832E18
B8_tilde, -5.7752736692753524E20
